1	496
2	496
3	497
4	498
5	498
6	499
7	499
8	499
9	499
10	500
11	500
12	499
13	499
14	499
15	499
16	499
17	499
18	500
19	500
20	499
21	499
22	499
23	499
24	499
25	499
26	499
27	500
28	499
29	499
30	499
31	499
32	499
33	499
34	499
35	500
36	501
37	502
38	502
39	502
40	501
41	502
42	502
43	502
44	503
45	504
46	504
47	505
48	505
49	506
50	506
51	506
52	507
53	507
54	508
55	508
56	508
57	509
58	510
59	511
60	511
61	511
62	511
63	512
64	513
65	514
66	515
67	514
68	515
69	515
70	515
71	515
72	515
73	515
74	516
75	516
76	517
77	517
78	517
79	518
80	518
81	518
82	518
83	519
84	519
85	520
86	520
87	520
88	520
89	520
90	520
91	519
92	519
93	520
94	521
95	521
96	522
97	523
98	523
99	523
100	523
101	524
102	524
103	524
104	524
105	524
106	524
107	525
108	526
109	527
110	527
111	527
112	528
113	528
114	529
115	530
116	529
117	530
118	531
119	531
120	531
121	531
122	532
123	533
124	534
125	535
126	535
127	536
128	536
129	536
130	536
131	536
132	536
133	536
134	537
135	536
136	536
137	536
138	536
139	536
140	536
141	536
142	537
143	539
144	539
145	539
146	539
147	539
148	539
149	539
150	539
151	538
152	538
153	538
154	538
155	538
156	538
157	537
158	537
159	537
160	537
161	535
162	534
163	533
164	532
165	532
166	531
167	531
168	529
169	528
170	526
171	525
172	524
173	523
174	521
175	519
176	518
177	516
178	514
179	512
180	510
181	508
182	506
183	504
184	503
185	502
186	500
187	498
188	497
189	495
190	494
191	492
192	491
193	489
194	487
195	487
196	485
197	483
198	482
199	481
200	480
201	479
202	478
203	478
204	477
205	477
206	476
207	476
208	476
209	475
210	475
211	474
212	473
213	473
214	473
215	472
216	473
217	472
218	472
219	472
220	471
221	471
222	471
223	470
224	470
225	470
226	470
227	471
228	471
229	471
230	471
231	471
232	471
233	471
234	472
235	472
236	473
237	473
238	474
239	475
240	475
241	475
242	475
243	476
244	475
245	476
246	476
247	476
248	477
249	478
250	478
251	477
252	477
253	478
254	478
255	478
256	479
257	479
258	480
259	480
260	480
261	480
262	480
263	480
264	480
265	481
266	482
267	482
268	483
269	483
270	484
271	485
272	487
273	487
274	488
275	488
276	488
277	489
278	489
279	489
280	489
281	490
282	491
283	491
284	491
285	491
286	491
287	492
288	492
289	493
290	494
291	495
292	496
293	496
294	497
295	497
296	497
297	498
298	499
299	500
300	500
301	501
302	501
303	501
304	502
305	502
306	502
307	501
308	502
309	502
310	501
311	501
312	501
313	502
314	500
315	501
316	502
317	501
318	501
319	500
320	500
321	500
322	500
323	501
324	501
325	502
326	501
327	501
328	502
329	502
330	502
331	502
332	503
333	503
334	503
335	503
336	504
337	504
338	505
339	505
340	506
341	506
342	505
343	505
344	506
345	507
346	507
347	507
348	507
349	507
350	508
351	508
352	508
353	508
354	508
355	508
356	508
357	507
358	507
359	507
360	507
361	506
362	506
363	506
364	506
365	507
366	507
367	508
368	507
369	507
370	507
371	508
372	508
373	507
374	507
375	507
376	507
377	507
378	507
379	507
380	507
381	507
382	508
383	508
384	508
385	509
386	509
387	510
388	510
389	510
390	509
391	509
392	510
393	510
394	509
395	509
396	509
397	508
398	508
399	508
400	508
401	508
402	507
403	507
404	507
405	507
406	507
407	508
408	508
409	507
410	507
411	507
412	507
413	507
414	507
415	507
416	508
417	508
418	508
419	509
420	508
421	508
422	508
423	509
424	509
425	510
426	510
427	511
428	511
429	512
430	511
431	510
432	511
433	512
434	511
435	511
436	511
437	511
438	511
439	511
440	510
441	509
442	510
443	510
444	510
445	510
446	510
447	510
448	510
449	510
450	510
451	510
452	510
453	510
454	510
455	511
456	511
457	511
458	511
459	511
460	511
461	511
462	511
463	511
464	512
465	512
466	513
467	514
468	514
469	514
470	514
471	515
472	515
473	515
474	515
475	515
476	516
477	516
478	517
479	516
480	517
481	517
482	518
483	518
484	519
485	520
486	520
487	520
488	520
489	521
490	523
491	523
492	525
493	525
494	525
495	525
496	525
497	524
498	524
499	523
500	523
501	523
502	523
503	523
504	524
505	524
506	525
507	525
508	526
509	527
510	527
511	527
512	528
513	529
514	530
515	531
516	532
517	532
518	533
519	533
520	533
521	532
522	531
523	531
524	531
525	530
526	529
527	528
528	527
529	526
530	525
531	523
532	523
533	523
534	522
535	522
536	521
537	522
538	522
539	521
540	521
541	521
542	520
543	519
544	518
545	518
546	517
547	516
548	515
549	514
550	513
551	512
552	512
553	511
554	510
555	509
556	508
557	507
558	505
559	504
560	503
561	503
562	501
563	500
564	500
565	500
566	500
567	500
568	499
569	499
570	499
571	498
572	498
573	499
574	499
575	499
576	500
577	500
578	501
579	501
580	501
581	502
582	501
583	501
584	501
585	501
586	501
587	502
588	502
589	502
590	502
591	502
592	502
593	503
594	503
595	504
596	504
597	504
598	505
599	505
600	505
601	505
602	505
603	505
604	505
605	505
606	505
607	506
608	506
609	505
610	506
611	506
612	507
613	507
614	507
615	506
616	505
617	505
618	505
619	506
620	506
621	506
622	507
623	507
624	507
625	508
626	508
627	508
628	508
629	508
630	508
631	509
632	509
633	509
634	509
635	510
636	509
637	509
638	508
639	507
640	506
641	505
642	505
643	504
644	504
645	505
646	507
647	511
648	514
649	518
650	522
651	527
652	532
653	537
654	543
655	550
656	557
657	566
658	577
659	588
660	601
661	612
662	624
663	635
664	644
665	654
666	662
667	671
668	677
669	682
670	684
671	683
672	683
673	679
674	674
675	664
676	653
677	638
678	623
679	608
680	593
681	577
682	562
683	548
684	534
685	519
686	506
687	493
688	479
689	466
690	455
691	444
692	436
693	431
694	428
695	426
696	426
697	428
698	430
699	432
700	435
701	438
702	441
703	444
704	448
705	452
706	456
707	462
708	466
709	470
710	473
711	476
712	479
713	481
714	484
715	485
716	487
717	489
718	490
719	492
720	493
721	494
722	495
723	496
724	496
725	497
726	498
727	499
728	499
729	500
730	501
731	502
732	503
733	503
734	503
735	504
736	504
737	504
738	504
739	504
740	504
741	504
742	505
743	505
744	505
745	506
746	507
747	507
748	507
749	507
750	507
751	507
752	507
753	507
754	507
755	508
756	508
757	509
758	510
759	510
760	511
761	511
762	510
763	510
764	510
765	511
766	511
767	511
768	511
769	511
770	512
771	512
772	512
773	513
774	513
775	514
776	515
777	515
778	515
779	515
780	515
781	515
782	516
783	517
784	517
785	518
786	518
787	519
788	519
789	519
790	519
791	519
792	519
793	519
794	520
795	520
796	520
797	520
798	520
799	521
800	521
801	521
802	521
803	521
804	522
805	522
806	523
807	523
808	523
809	523
810	523
811	524
812	524
813	524
814	524
815	524
816	524
817	524
818	525
819	525
820	526
821	526
822	527
823	528
824	528
825	529
826	529
827	529
828	529
829	529
830	529
831	528
832	529
833	529
834	529
835	530
836	531
837	531
838	531
839	531
840	531
841	531
842	531
843	532
844	532
845	533
846	534
847	534
848	535
849	535
850	536
851	536
852	537
853	537
854	538
855	539
856	539
857	539
858	540
859	540
860	540
861	540
862	541
863	541
864	541
865	542
866	542
867	542
868	542
869	542
870	541
871	542
872	542
873	542
874	542
875	542
876	541
877	542
878	541
879	541
880	541
881	541
882	540
883	540
884	540
885	540
886	540
887	540
888	540
889	540
890	540
891	540
892	540
893	540
894	539
895	539
896	539
897	538
898	538
899	537
900	536
901	535
902	534
903	533
904	532
905	531
906	529
907	528
908	527
909	525
910	523
911	521
912	519
913	516
914	514
915	512
916	511
917	510
918	508
919	506
920	504
921	502
922	500
923	498
924	496
925	495
926	493
927	491
928	489
929	488
930	487
931	486
932	484
933	483
934	482
935	481
936	480
937	480
938	480
939	479
940	478
941	476
942	476
943	476
944	475
945	475
946	473
947	473
948	473
949	472
950	472
951	472
952	472
953	472
954	472
955	471
956	471
957	471
958	471
959	470
960	470
961	469
962	470
963	470
964	470
965	471
966	471
967	472
968	472
969	473
970	474
971	474
972	474
973	475
974	476
975	477
976	478
977	479
978	480
979	480
980	480
981	480
982	480
983	481
984	482
985	482
986	483
987	483
988	484
989	484
990	484
991	484
992	484
993	484
994	484
995	485
996	486
997	486
998	487
999	487
1000	487
1001	486
1002	487
1003	487
1004	488
1005	488
1006	489
1007	490
1008	490
1009	490
1010	490
1011	489
1012	489
1013	489
1014	489
1015	490
1016	490
1017	491
1018	492
1019	492
1020	492
1021	492
1022	492
1023	494
1024	494
1025	495
1026	496
1027	495
1028	496
1029	497
1030	496
1031	497
1032	497
1033	498
1034	498
1035	499
1036	499
1037	500
1038	500
1039	500
1040	499
1041	500
1042	499
1043	499
1044	499
1045	499
1046	498
1047	498
1048	498
1049	498
1050	497
1051	497
1052	497
1053	497
1054	497
1055	497
1056	498
1057	498
1058	499
1059	499
1060	499
1061	499
1062	499
1063	500
1064	501
1065	501
1066	501
1067	501
1068	501
1069	501
1070	501
1071	501
1072	502
1073	502
1074	502
1075	503
1076	504
1077	504
1078	504
1079	505
1080	505
1081	505
1082	505
1083	505
1084	505
1085	506
1086	506
1087	507
1088	507
1089	507
1090	507
1091	506
1092	506
1093	507
1094	507
1095	508
1096	508
1097	508
1098	508
1099	508
1100	508
1101	508
1102	508
1103	509
1104	510
1105	510
1106	511
1107	511
1108	511
1109	510
1110	510
1111	509
1112	509
1113	509
1114	508
1115	509
1116	509
1117	509
1118	509
1119	509
1120	508
1121	508
1122	509
1123	509
1124	509
1125	509
1126	510
1127	510
1128	510
1129	510
1130	510
1131	509
1132	509
1133	509
1134	509
1135	509
1136	509
1137	509
1138	509
1139	509
1140	508
1141	508
1142	508
1143	509
1144	509
1145	509
1146	508
1147	508
1148	508
1149	507
1150	507
1151	506
1152	507
1153	507
1154	507
1155	508
1156	508
1157	509
1158	509
1159	510
1160	510
1161	510
1162	511
1163	511
1164	511
1165	511
1166	511
1167	511
1168	512
1169	512
1170	512
1171	512
1172	512
1173	512
1174	512
1175	512
1176	512
1177	512
1178	512
1179	512
1180	512
1181	512
1182	512
1183	512
1184	512
1185	512
1186	513
1187	513
1188	513
1189	513
1190	513
1191	513
1192	513
1193	513
1194	513
1195	513
1196	512
1197	512
1198	512
1199	512
1200	512
1201	512
1202	511
1203	511
1204	511
1205	511
1206	512
1207	512
1208	512
1209	512
1210	512
1211	512
1212	513
1213	513
1214	513
1215	513
1216	514
1217	514
1218	514
1219	514
1220	513
1221	512
1222	512
1223	511
1224	510
1225	510
1226	510
1227	511
1228	511
1229	511
1230	511
1231	511
1232	512
1233	511
1234	512
1235	513
1236	512
1237	513
1238	514
1239	515
1240	514
1241	515
1242	516
1243	516
1244	518
1245	519
1246	520
1247	520
1248	520
1249	521
1250	521
1251	520
1252	519
1253	519
1254	519
1255	520
1256	521
1257	521
1258	521
1259	522
1260	522
1261	522
1262	522
1263	523
1264	523
1265	524
1266	524
1267	525
1268	526
1269	527
1270	527
1271	528
1272	528
1273	529
1274	528
1275	528
1276	527
1277	527
1278	527
1279	527
1280	525
1281	524
1282	524
1283	522
1284	521
1285	522
1286	522
1287	522
1288	523
1289	522
1290	523
1291	522
1292	522
1293	522
1294	522
1295	521
1296	520
1297	519
1298	518
1299	518
1300	516
1301	515
1302	514
1303	513
1304	512
1305	512
1306	511
1307	510
1308	508
1309	507
1310	505
1311	504
1312	503
1313	503
1314	502
1315	502
1316	500
1317	500
1318	499
1319	498
1320	498
1321	497
1322	497
1323	497
1324	497
1325	497
1326	497
1327	498
1328	498
1329	498
1330	498
1331	497
1332	497
1333	497
1334	497
1335	497
1336	497
1337	497
1338	497
1339	498
1340	498
1341	498
1342	499
1343	499
1344	499
1345	500
1346	500
1347	500
1348	500
1349	499
1350	499
1351	499
1352	500
1353	500
1354	500
1355	500
1356	501
1357	501
1358	502
1359	502
1360	502
1361	502
1362	502
1363	502
1364	503
1365	504
1366	504
1367	503
1368	504
1369	504
1370	504
1371	504
1372	504
1373	504
1374	504
1375	504
1376	504
1377	504
1378	504
1379	504
1380	503
1381	503
1382	503
1383	503
1384	503
1385	504
1386	504
1387	504
1388	505
1389	504
1390	504
1391	504
1392	503
1393	503
1394	503
1395	502
1396	502
1397	501
1398	501
1399	503
1400	505
1401	508
1402	512
1403	516
1404	520
1405	524
1406	529
1407	535
1408	541
1409	548
1410	556
1411	567
1412	578
1413	590
1414	602
1415	613
1416	623
1417	633
1418	643
1419	652
1420	659
1421	666
1422	671
1423	674
1424	675
1425	675
1426	673
1427	668
1428	659
1429	647
1430	633
1431	618
1432	604
1433	589
1434	575
1435	560
1436	546
1437	532
1438	518
1439	504
1440	491
1441	477
1442	464
1443	453
1444	443
1445	434
1446	428
1447	423
1448	422
1449	422
1450	423
1451	425
1452	427
1453	429
1454	433
1455	437
1456	440
1457	444
1458	448
1459	452
1460	456
1461	460
1462	464
1463	467
1464	471
1465	473
1466	475
1467	476
1468	478
1469	480
1470	481
1471	483
1472	484
1473	485
1474	486
1475	487
1476	488
1477	488
1478	489
1479	489
1480	489
1481	490
1482	492
1483	492
1484	494
1485	494
1486	495
1487	495
1488	495
1489	495
1490	496
1491	496
1492	496
1493	497
1494	497
1495	498
1496	499
1497	499
1498	499
1499	499
1500	499
1501	499
1502	499
1503	499
1504	500
1505	500
1506	500
1507	501
1508	502
1509	502
1510	502
1511	503
1512	503
1513	503
1514	503
1515	504
1516	504
1517	504
1518	504
1519	504
1520	504
1521	505
1522	505
1523	505
1524	505
1525	505
1526	505
1527	506
1528	506
1529	506
1530	506
1531	507
1532	507
1533	508
1534	508
1535	510
1536	510
1537	509
1538	510
1539	510
1540	510
1541	510
1542	509
1543	509
1544	510
1545	510
1546	511
1547	511
1548	511
1549	511
1550	511
1551	511
1552	511
1553	511
1554	512
1555	512
1556	512
1557	513
1558	513
1559	512
1560	512
1561	512
1562	512
1563	512
1564	512
1565	512
1566	513
1567	514
1568	514
1569	514
1570	514
1571	514
1572	514
1573	515
1574	516
1575	516
1576	517
1577	518
1578	517
1579	517
1580	517
1581	518
1582	517
1583	518
1584	519
1585	519
1586	519
1587	520
1588	521
1589	522
1590	522
1591	522
1592	522
1593	523
1594	524
1595	524
1596	524
1597	524
1598	525
1599	525
1600	524
1601	524
1602	525
1603	526
1604	527
1605	527
1606	527
1607	527
1608	527
1609	527
1610	528
1611	528
1612	528
1613	529
1614	529
1615	529
1616	528
1617	529
1618	529
1619	530
1620	530
1621	529
1622	530
1623	530
1624	530
1625	530
1626	530
1627	530
1628	529
1629	529
1630	529
1631	529
1632	529
1633	529
1634	530
1635	529
1636	530
1637	530
1638	530
1639	530
1640	529
1641	529
1642	530
1643	531
1644	531
1645	530
1646	528
1647	528
1648	529
1649	529
1650	528
1651	528
1652	528
1653	528
1654	527
1655	526
1656	525
1657	524
1658	523
1659	522
1660	521
1661	520
1662	519
1663	518
1664	516
1665	515
1666	513
1667	511
1668	510
1669	508
1670	506
1671	505
1672	504
1673	502
1674	500
1675	498
1676	496
1677	495
1678	492
1679	490
1680	488
1681	487
1682	486
1683	484
1684	483
1685	481
1686	479
1687	479
1688	478
1689	476
1690	475
1691	473
1692	472
1693	472
1694	471
1695	470
1696	470
1697	470
1698	469
1699	469
1700	468
1701	467
1702	467
1703	467
1704	468
1705	468
1706	467
1707	468
1708	468
1709	468
1710	467
1711	467
1712	467
1713	467
1714	467
1715	467
1716	467
1717	467
1718	467
1719	467
1720	467
1721	466
1722	467
1723	467
1724	468
1725	468
1726	469
1727	470
1728	470
1729	471
1730	471
1731	471
1732	471
1733	471
1734	472
1735	472
1736	473
1737	473
1738	474
1739	475
1740	476
1741	476
1742	476
1743	476
1744	476
1745	476
1746	476
1747	476
1748	478
1749	478
1750	478
1751	478
1752	479
1753	480
1754	481
1755	481
1756	482
1757	483
1758	483
1759	484
1760	484
1761	484
1762	484
1763	485
1764	486
1765	487
1766	489
1767	490
1768	491
1769	491
1770	491
1771	490
1772	490
1773	491
1774	491
1775	491
1776	491
1777	492
1778	493
1779	494
1780	494
1781	494
1782	495
1783	495
1784	495
1785	495
1786	496
1787	495
1788	496
1789	497
1790	498
1791	497
1792	498
1793	497
1794	497
1795	498
1796	499
1797	498
1798	498
1799	499
1800	499
1801	499
1802	499
1803	500
1804	501
1805	502
1806	503
1807	503
1808	503
1809	504
1810	504
1811	504
1812	504
1813	504
1814	505
1815	505
1816	505
1817	505
1818	505
1819	506
1820	506
1821	506
1822	506
1823	506
1824	505
1825	506
1826	506
1827	507
1828	507
1829	507
1830	507
1831	507
1832	507
1833	507
1834	507
1835	508
1836	508
1837	510
1838	510
1839	511
1840	511
1841	510
1842	510
1843	510
1844	510
1845	510
1846	511
1847	510
1848	510
1849	510
1850	510
1851	511
1852	512
1853	511
1854	512
1855	512
1856	512
1857	511
1858	511
1859	511
1860	512
1861	513
1862	514
1863	514
1864	513
1865	513
1866	513
1867	513
1868	512
1869	512
1870	512
1871	512
1872	512
1873	511
1874	512
1875	512
1876	512
1877	512
1878	512
1879	512
1880	512
1881	511
1882	512
1883	511
1884	511
1885	512
1886	512
1887	513
1888	513
1889	513
1890	513
1891	512
1892	512
1893	512
1894	512
1895	514
1896	514
1897	514
1898	513
1899	514
1900	514
1901	513
1902	513
1903	513
1904	514
1905	514
1906	512
1907	512
1908	511
1909	512
1910	512
1911	511
1912	512
1913	512
1914	512
1915	512
1916	512
1917	512
1918	512
1919	512
1920	512
1921	513
1922	514
1923	514
1924	514
1925	515
1926	515
1927	515
1928	515
1929	516
1930	515
1931	514
1932	515
1933	515
1934	515
1935	515
1936	515
1937	515
1938	515
1939	515
1940	514
1941	513
1942	514
1943	513
1944	513
1945	513
1946	514
1947	513
1948	514
1949	513
1950	513
1951	514
1952	515
1953	514
1954	513
1955	513
1956	513
1957	513
1958	513
1959	512
1960	512
1961	512
1962	512
1963	513
1964	513
1965	512
1966	512
1967	513
1968	513
1969	514
1970	514
1971	514
1972	515
1973	514
1974	514
1975	515
1976	514
1977	515
1978	515
1979	515
1980	514
1981	514
1982	514
1983	513
1984	515
1985	515
1986	515
1987	516
1988	517
1989	516
1990	517
1991	517
1992	518
1993	519
1994	520
1995	520
1996	520
1997	521
1998	521
1999	521
2000	521
2001	521
2002	522
2003	522
2004	523
2005	524
2006	524
2007	524
2008	524
2009	525
2010	526
2011	526
2012	527
2013	528
2014	528
2015	527
2016	527
2017	527
2018	527
2019	527
2020	527
2021	528
2022	529
2023	530
2024	530
2025	531
2026	531
2027	531
2028	531
2029	532
2030	532
2031	533
2032	534
2033	535
2034	536
2035	536
2036	537
2037	538
2038	538
2039	539
2040	538
2041	536
2042	536
2043	534
2044	533
2045	532
2046	532
2047	532
2048	531
2049	531
2050	531
2051	531
2052	531
2053	531
2054	531
2055	532
2056	533
2057	533
2058	532
2059	531
2060	530
2061	528
2062	527
2063	527
2064	526
2065	525
2066	524
2067	524
2068	523
2069	523
2070	521
2071	520
2072	518
2073	518
2074	517
2075	516
2076	515
2077	513
2078	513
2079	513
2080	513
2081	512
2082	511
2083	510
2084	510
2085	510
2086	510
2087	510
2088	510
2089	509
2090	510
2091	510
2092	510
2093	510
2094	512
2095	513
2096	513
2097	512
2098	512
2099	512
2100	512
2101	512
2102	512
2103	511
2104	510
2105	510
2106	509
2107	510
2108	510
2109	509
2110	510
2111	509
2112	510
2113	509
2114	509
2115	509
2116	510
2117	510
2118	510
2119	510
2120	510
2121	510
2122	511
2123	511
2124	512
2125	511
2126	511
2127	511
2128	511
2129	511
2130	511
2131	511
2132	510
2133	510
2134	510
2135	511
2136	510
2137	511
2138	512
2139	512
2140	512
2141	511
2142	511
2143	511
2144	510
2145	511
2146	512
2147	511
2148	511
2149	511
2150	511
2151	510
2152	510
2153	510
2154	509
2155	509
2156	509
2157	510
2158	509
2159	509
2160	508
2161	508
2162	508
2163	509
2164	510
2165	512
2166	515
2167	517
2168	521
2169	526
2170	530
2171	534
2172	538
2173	544
2174	551
2175	560
2176	569
2177	580
2178	592
2179	603
2180	615
2181	624
2182	633
2183	643
2184	651
2185	660
2186	667
2187	672
2188	676
2189	677
2190	676
2191	673
2192	668
2193	660
2194	650
2195	637
2196	622
2197	608
2198	593
2199	582
2200	567
2201	552
2202	538
2203	525
2204	512
2205	500
2206	488
2207	476
2208	464
2209	454
2210	444
2211	437
2212	432
2213	430
2214	430
2215	430
2216	431
2217	433
2218	435
2219	438
2220	440
2221	443
2222	447
2223	452
2224	456
2225	462
2226	467
2227	471
2228	475
2229	478
2230	480
2231	483
2232	485
2233	486
2234	488
2235	491
2236	493
2237	495
2238	495
2239	496
2240	495
2241	496
2242	497
2243	497
2244	498
2245	499
2246	499
2247	500
2248	501
2249	502
2250	502
2251	504
2252	505
2253	507
2254	506
2255	506
2256	507
2257	508
2258	507
2259	507
2260	508
2261	508
2262	508
2263	507
2264	506
2265	507
2266	507
2267	508
2268	509
2269	510
2270	509
2271	510
2272	510
2273	511
2274	510
2275	511
2276	511
2277	511
2278	511
2279	512
2280	511
2281	510
2282	510
2283	510
2284	510
2285	510
2286	509
2287	510
2288	511
2289	512
2290	512
2291	512
2292	512
2293	512
2294	513
2295	514
2296	514
2297	514
2298	514
2299	515
2300	515
2301	516
2302	515
2303	515
2304	515
2305	517
2306	516
2307	517
2308	518
2309	517
2310	518
2311	518
2312	518
2313	518
2314	517
2315	518
2316	519
2317	519
2318	519
2319	520
2320	519
2321	520
2322	520
2323	520
2324	523
2325	523
2326	522
2327	523
2328	523
2329	524
2330	524
2331	524
2332	524
2333	524
2334	524
2335	525
2336	526
2337	527
2338	527
2339	527
2340	527
2341	527
2342	527
2343	528
2344	528
2345	528
2346	528
2347	528
2348	528
2349	528
2350	528
2351	527
2352	526
2353	527
2354	528
2355	528
2356	528
2357	528
2358	528
2359	529
2360	528
2361	529
2362	529
2363	529
2364	531
2365	533
2366	534
2367	533
2368	532
2369	532
2370	531
2371	532
2372	533
2373	534
2374	535
2375	536
2376	536
2377	536
2378	536
2379	536
2380	536
2381	536
2382	536
2383	536
2384	536
2385	537
2386	539
2387	538
2388	537
2389	537
2390	536
2391	536
2392	537
2393	538
2394	537
2395	536
2396	537
2397	538
2398	539
2399	539
2400	539
2401	538
2402	538
2403	538
2404	538
2405	537
2406	537
2407	538
2408	536
2409	537
2410	537
2411	537
2412	537
2413	537
2414	539
2415	539
2416	538
2417	537
2418	536
2419	535
2420	534
2421	534
2422	532
2423	531
2424	531
2425	529
2426	527
2427	525
2428	526
2429	524
2430	521
2431	519
2432	516
2433	515
2434	514
2435	512
2436	510
2437	509
2438	508
2439	507
2440	505
2441	504
2442	501
2443	499
2444	497
2445	496
2446	494
2447	492
2448	491
2449	489
2450	488
2451	487
2452	487
2453	486
2454	485
2455	483
2456	483
2457	483
2458	480
2459	479
2460	479
2461	477
2462	477
2463	477
2464	475
2465	475
2466	475
2467	476
2468	476
2469	475
2470	474
2471	472
2472	472
2473	471
2474	472
2475	472
2476	473
2477	474
2478	474
2479	473
2480	473
2481	474
2482	474
2483	474
2484	474
2485	474
2486	473
2487	474
2488	475
2489	475
2490	475
2491	476
2492	477
2493	477
2494	477
2495	477
2496	478
2497	479
2498	480
2499	480
2500	478
2501	478
2502	480
2503	480
2504	481
2505	481
2506	482
2507	483
2508	482
2509	481
2510	481
2511	481
2512	482
2513	482
2514	483
2515	483
2516	484
2517	483
2518	483
2519	484
2520	484
2521	484
2522	483
2523	484
2524	486
2525	487
2526	486
2527	486
2528	487
2529	487
2530	487
2531	487
2532	488
2533	487
2534	488
2535	489
2536	489
2537	488
2538	488
2539	488
2540	489
2541	489
2542	489
2543	489
2544	491
2545	491
2546	491
2547	490
2548	492
2549	493
2550	494
2551	494
2552	495
2553	495
2554	496
2555	496
2556	496
2557	496
2558	497
2559	497
2560	497
2561	496
2562	496
2563	498
2564	499
2565	499
2566	499
2567	500
2568	502
2569	501
2570	500
2571	500
2572	500
2573	501
2574	501
2575	501
2576	500
2577	502
2578	502
2579	502
2580	502
2581	503
2582	503
2583	502
2584	502
2585	503
2586	504
2587	504
2588	504
2589	506
2590	507
2591	507
2592	508
2593	508
2594	508
2595	508
2596	508
2597	508
2598	509
2599	508
2600	508
2601	508
2602	508
2603	508
2604	509
2605	509
2606	510
2607	511
2608	511
2609	511
2610	511
2611	508
2612	508
2613	507
2614	508
2615	508
2616	508
2617	508
2618	508
2619	507
2620	506
2621	506
2622	505
2623	504
2624	504
2625	504
2626	505
2627	505
2628	504
2629	504
2630	505
2631	504
2632	504
2633	504
2634	504
2635	504
2636	504
2637	504
2638	505
2639	505
2640	505
2641	504
2642	504
2643	505
2644	505
2645	505
2646	505
2647	505
2648	504
2649	504
2650	504
2651	504
2652	504
2653	505
2654	506
2655	505
2656	506
2657	506
2658	507
2659	507
2660	507
2661	507
2662	507
2663	508
2664	507
2665	507
2666	507
2667	507
2668	508
2669	508
2670	509
2671	509
2672	510
2673	510
2674	510
2675	510
2676	510
2677	510
2678	510
2679	510
2680	509
2681	509
2682	508
2683	509
2684	510
2685	510
2686	511
2687	511
2688	512
2689	513
2690	513
2691	515
2692	515
2693	514
2694	515
2695	515
2696	516
2697	516
2698	516
2699	516
2700	516
2701	516
2702	516
2703	517
2704	517
2705	516
2706	517
2707	516
2708	515
2709	515
2710	514
2711	514
2712	515
2713	515
2714	515
2715	515
2716	515
2717	514
2718	514
2719	515
2720	515
2721	515
2722	515
2723	515
2724	514
2725	514
2726	515
2727	515
2728	514
2729	514
2730	513
2731	514
2732	516
2733	516
2734	516
2735	516
2736	516
2737	515
2738	515
2739	514
2740	515
2741	515
2742	515
2743	516
2744	515
2745	516
2746	517
2747	518
2748	517
2749	517
2750	517
2751	517
2752	519
2753	518
2754	518
2755	518
2756	517
2757	517
2758	517
2759	517
2760	517
2761	518
2762	518
2763	518
2764	519
2765	519
2766	520
2767	521
2768	521
2769	522
2770	521
2771	520
2772	521
2773	521
2774	522
2775	522
2776	524
2777	525
2778	525
2779	526
2780	526
2781	526
2782	525
2783	525
2784	526
2785	528
2786	529
2787	529
2788	531
2789	532
2790	533
2791	534
2792	534
2793	532
2794	532
2795	532
2796	531
2797	531
2798	530
2799	529
2800	527
2801	527
2802	527
2803	525
2804	526
2805	527
2806	527
2807	528
2808	528
2809	528
2810	528
2811	527
2812	527
2813	527
2814	526
2815	526
2816	525
2817	524
2818	525
2819	524
2820	523
2821	522
2822	523
2823	521
2824	520
2825	518
2826	517
2827	516
2828	515
2829	513
2830	513
2831	512
2832	511
2833	511
2834	511
2835	510
2836	511
2837	511
2838	511
2839	510
2840	509
2841	510
2842	512
2843	511
2844	512
2845	511
2846	510
2847	510
2848	511
2849	512
2850	511
2851	511
2852	511
2853	512
2854	512
2855	512
2856	512
2857	513
2858	512
2859	513
2860	513
2861	513
2862	513
2863	514
2864	514
2865	514
2866	513
2867	513
2868	512
2869	511
2870	512
2871	512
2872	512
2873	511
2874	511
2875	511
2876	512
2877	511
2878	511
2879	510
2880	509
2881	509
2882	509
2883	509
2884	509
2885	510
2886	511
2887	511
2888	511
2889	510
2890	508
2891	508
2892	509
2893	509
2894	511
2895	512
2896	511
2897	510
2898	510
2899	510
2900	511
2901	511
2902	509
2903	509
2904	509
2905	508
2906	508
2907	508
2908	508
2909	508
2910	509
2911	509
2912	509
2913	510
2914	509
2915	508
2916	509
2917	510
2918	511
2919	512
2920	516
2921	520
2922	524
2923	527
2924	531
2925	536
2926	541
2927	546
2928	553
2929	561
2930	571
2931	580
2932	591
2933	603
2934	612
2935	621
2936	629
2937	637
2938	644
2939	652
2940	658
2941	662
2942	664
2943	665
2944	666
2945	664
2946	657
2947	647
2948	636
2949	622
2950	607
2951	594
2952	582
2953	568
2954	554
2955	541
2956	527
2957	516
2958	506
2959	495
2960	484
2961	472
2962	463
2963	453
2964	444
2965	437
2966	432
2967	430
2968	430
2969	428
2970	428
2971	428
2972	432
2973	435
2974	438
2975	442
2976	445
2977	449
2978	453
2979	457
2980	461
2981	465
2982	468
2983	472
2984	475
2985	476
2986	479
2987	481
2988	483
2989	485
2990	487
2991	489
2992	492
2993	493
2994	493
2995	494
2996	495
2997	495
2998	497
2999	497
3000	496
3001	497
3002	498
3003	498
3004	498
3005	499
3006	499
3007	499
3008	499
3009	500
3010	501
3011	501
3012	501
3013	502
3014	503
3015	503
3016	503
3017	502
3018	502
3019	503
3020	504
3021	504
3022	504
3023	506
3024	506
3025	507
3026	509
3027	509
3028	509
3029	509
3030	509
3031	508
3032	508
3033	509
3034	510
3035	509
3036	509
3037	510
3038	510
3039	510
3040	511
3041	511
3042	511
3043	512
3044	512
3045	512
3046	512
3047	512
3048	512
3049	512
3050	511
3051	510
3052	511
3053	512
3054	513
3055	513
3056	512
3057	512
3058	511
3059	512
3060	513
3061	513
3062	512
3063	512
3064	512
3065	514
3066	514
3067	514
3068	515
3069	514
3070	515
3071	515
3072	516
3073	516
3074	517
3075	517
3076	517
3077	518
3078	518
3079	517
3080	516
3081	518
3082	518
3083	518
3084	519
3085	521
3086	521
3087	519
3088	520
3089	522
3090	523
3091	523
3092	522
3093	521
3094	522
3095	524
3096	524
3097	524
3098	524
3099	524
3100	525
3101	526
3102	526
3103	526
3104	526
3105	527
3106	528
3107	529
3108	529
3109	528
3110	528
3111	529
3112	529
3113	530
3114	530
3115	532
3116	533
3117	534
3118	533
3119	534
3120	534
3121	533
3122	533
3123	534
3124	535
3125	536
3126	537
3127	536
3128	536
3129	537
3130	539
3131	538
3132	539
3133	540
3134	540
3135	541
3136	540
3137	540
3138	540
3139	541
3140	541
3141	542
3142	542
3143	542
3144	542
3145	542
3146	542
3147	543
3148	543
3149	542
3150	541
3151	541
3152	540
3153	540
3154	541
3155	542
3156	542
3157	541
3158	542
3159	542
3160	541
3161	540
3162	539
3163	539
3164	540
3165	541
3166	540
3167	539
3168	538
3169	537
3170	537
3171	537
3172	536
3173	534
3174	534
3175	534
3176	532
3177	531
3178	529
3179	527
3180	526
3181	525
3182	523
3183	520
3184	519
3185	518
3186	517
3187	515
3188	514
3189	512
3190	510
3191	508
3192	506
3193	504
3194	502
3195	499
3196	498
3197	497
3198	495
3199	493
3200	492
3201	490
3202	490
3203	489
3204	488
3205	486
3206	485
3207	485
3208	484
3209	482
3210	481
3211	480
3212	478
3213	478
3214	478
3215	477
3216	477
3217	476
3218	476
3219	476
3220	475
3221	474
3222	473
3223	473
3224	472
3225	472
3226	472
3227	472
3228	473
3229	473
3230	473
3231	473
3232	473
3233	472
3234	472
3235	473
3236	474
3237	475
3238	474
3239	473
3240	473
3241	474
3242	475
3243	476
3244	476
3245	476
3246	476
3247	476
3248	476
3249	476
3250	477
3251	478
3252	478
3253	479
3254	480
3255	480
3256	480
3257	481
3258	482
3259	482
3260	481
3261	482
3262	481
3263	481
3264	482
3265	482
3266	481
3267	481
3268	482
3269	482
3270	482
3271	482
3272	483
3273	482
3274	483
3275	483
3276	483
3277	482
3278	483
3279	483
3280	483
3281	482
3282	481
3283	482
3284	483
3285	484
3286	484
3287	484
3288	485
3289	486
3290	486
3291	486
3292	487
3293	487
3294	487
3295	486
3296	486
3297	485
3298	484
3299	484
3300	484
3301	484
3302	485
3303	485
3304	485
3305	487
3306	487
3307	488
3308	488
3309	488
3310	489
3311	490
3312	489
3313	491
3314	492
3315	492
3316	493
3317	492
3318	494
3319	494
3320	493
3321	492
3322	493
3323	494
3324	494
3325	495
3326	494
3327	495
3328	497
3329	496
3330	496
3331	496
3332	497
3333	497
3334	497
3335	497
3336	498
3337	499
3338	500
3339	500
3340	501
3341	500
3342	500
3343	500
3344	500
3345	501
3346	503
3347	504
3348	504
3349	505
3350	504
3351	504
3352	505
3353	505
3354	506
3355	506
3356	507
3357	507
3358	508
3359	508
3360	507
3361	506
3362	506
3363	505
3364	506
3365	507
3366	509
3367	510
3368	510
3369	509
3370	509
3371	509
3372	509
3373	509
3374	509
3375	509
3376	510
3377	510
3378	510
3379	510
3380	510
3381	510
3382	509
3383	509
3384	510
3385	511
3386	511
3387	511
3388	511
3389	511
3390	512
3391	513
3392	512
3393	511
3394	512
3395	513
3396	512
3397	512
3398	512
3399	512
3400	512
3401	512
3402	511
3403	510
3404	511
3405	511
3406	511
3407	511
3408	512
3409	512
3410	512
3411	512
3412	511
3413	511
3414	511
3415	512
3416	512
3417	512
3418	512
3419	512
3420	512
3421	511
3422	511
3423	512
3424	512
3425	512
3426	512
3427	512
3428	511
3429	510
3430	509
3431	510
3432	511
3433	510
3434	510
3435	510
3436	509
3437	509
3438	509
3439	508
3440	508
3441	508
3442	507
3443	507
3444	507
3445	508
3446	508
3447	508
3448	508
3449	507
3450	507
3451	508
3452	508
3453	508
3454	507
3455	507
3456	507
3457	507
3458	508
3459	508
3460	508
3461	508
3462	507
3463	508
3464	508
3465	507
3466	507
3467	506
3468	506
3469	506
3470	505
3471	505
3472	505
3473	506
3474	507
3475	507
3476	506
3477	507
3478	508
3479	508
3480	507
3481	506
3482	507
3483	508
3484	508
3485	506
3486	507
3487	508
3488	507
3489	508
3490	508
3491	507
3492	507
3493	508
3494	508
3495	508
3496	509
3497	509
3498	510
3499	510
3500	511
3501	511
3502	511
3503	511
3504	511
3505	511
3506	511
3507	511
3508	511
3509	511
3510	511
3511	512
3512	512
3513	512
3514	513
3515	514
3516	515
3517	516
3518	517
3519	516
3520	516
3521	517
3522	518
3523	519
3524	520
3525	520
3526	521
3527	521
3528	522
3529	522
3530	522
3531	521
3532	521
3533	521
3534	520
3535	519
3536	518
3537	518
3538	517
3539	517
3540	516
3541	516
3542	515
3543	515
3544	514
3545	514
3546	514
3547	514
3548	515
3549	513
3550	513
3551	512
3552	512
3553	511
3554	511
3555	510
3556	509
3557	508
3558	509
3559	508
3560	507
3561	506
3562	506
3563	505
3564	505
3565	504
3566	504
3567	504
3568	503
3569	503
3570	501
3571	499
3572	498
3573	498
3574	498
3575	499
3576	499
3577	499
3578	498
3579	499
3580	499
3581	499
3582	499
3583	497
3584	498
3585	498
3586	498
3587	498
3588	498
3589	497
3590	497
3591	497
3592	498
3593	498
3594	498
3595	498
3596	498
3597	498
3598	498
3599	498
3600	499
3601	498
3602	497
3603	498
3604	497
3605	498
3606	498
3607	498
3608	498
3609	497
3610	497
3611	498
3612	498
3613	499
3614	499
3615	499
3616	499
3617	499
3618	499
3619	499
3620	498
3621	499
3622	499
3623	499
3624	499
3625	500
3626	499
3627	499
3628	499
3629	499
3630	500
3631	500
3632	501
3633	501
3634	502
3635	502
3636	503
3637	504
3638	504
3639	502
3640	502
3641	502
3642	502
3643	501
3644	500
3645	500
3646	499
3647	498
3648	498
3649	498
3650	497
3651	498
3652	499
3653	501
3654	505
3655	508
3656	511
3657	515
3658	519
3659	523
3660	526
3661	531
3662	538
3663	545
3664	553
3665	563
3666	573
3667	584
3668	595
3669	604
3670	613
3671	620
3672	627
3673	635
3674	641
3675	646
3676	651
3677	653
3678	653
3679	652
3680	649
3681	643
3682	634
3683	621
3684	607
3685	594
3686	581
3687	568
3688	556
3689	543
3690	530
3691	517
3692	506
3693	495
3694	484
3695	473
3696	463
3697	454
3698	445
3699	438
3700	432
3701	428
3702	427
3703	426
3704	425
3705	427
3706	430
3707	432
3708	434
3709	438
3710	441
3711	445
3712	448
3713	451
3714	455
3715	458
3716	462
3717	465
3718	469
3719	472
3720	473
3721	475
3722	478
3723	479
3724	481
3725	482
3726	484
3727	485
3728	486
3729	487
3730	487
3731	489
3732	489
3733	490
3734	492
3735	493
3736	494
3737	494
3738	495
3739	496
3740	497
3741	496
3742	496
3743	497
3744	498
3745	499
3746	499
3747	500
3748	501
3749	500
3750	500
3751	500
3752	500
3753	500
3754	501
3755	501
3756	502
3757	501
3758	500
3759	501
3760	502
3761	503
3762	503
3763	503
3764	503
3765	503
3766	504
3767	504
3768	504
3769	504
3770	504
3771	505
3772	505
3773	507
3774	507
3775	507
3776	508
3777	507
3778	506
3779	505
3780	505
3781	506
3782	506
3783	505
3784	505
3785	505
3786	505
3787	505
3788	506
3789	506
3790	505
3791	505
3792	505
3793	507
3794	507
3795	507
3796	507
3797	507
3798	508
3799	510
3800	510
3801	510
3802	511
3803	510
3804	511
3805	510
3806	511
3807	511
3808	511
3809	511
3810	511
3811	511
3812	512
3813	512
3814	512
3815	512
3816	512
3817	513
3818	513
3819	513
3820	513
3821	512
3822	512
3823	512
3824	513
3825	514
3826	514
3827	515
3828	516
3829	516
3830	516
3831	516
3832	516
3833	517
3834	517
3835	517
3836	518
3837	517
3838	518
3839	519
3840	519
3841	519
3842	519
3843	519
3844	519
3845	519
3846	519
3847	520
3848	521
3849	522
3850	522
3851	522
3852	523
3853	522
3854	522
3855	522
3856	522
3857	522
3858	523
3859	524
3860	524
3861	524
3862	524
3863	524
3864	524
3865	524
3866	524
3867	524
3868	524
3869	524
3870	524
3871	525
3872	525
3873	526
3874	527
3875	527
3876	527
3877	528
3878	527
3879	527
3880	527
3881	527
3882	527
3883	527
3884	527
3885	527
3886	527
3887	527
3888	527
3889	527
3890	527
3891	527
3892	528
3893	528
3894	528
3895	528
3896	529
3897	529
3898	529
3899	527
3900	527
3901	527
3902	527
3903	527
3904	527
3905	527
3906	526
3907	525
3908	525
3909	524
3910	523
3911	521
3912	519
3913	518
3914	518
3915	517
3916	515
3917	514
3918	512
3919	512
3920	510
3921	508
3922	506
3923	504
3924	502
3925	500
3926	499
3927	498
3928	496
3929	493
3930	492
3931	491
3932	489
3933	487
3934	486
3935	483
3936	482
3937	482
3938	481
3939	479
3940	477
3941	476
3942	475
3943	475
3944	475
3945	473
3946	472
3947	472
3948	471
3949	471
3950	470
3951	469
3952	467
3953	467
3954	467
3955	467
3956	467
3957	467
3958	467
3959	467
3960	467
3961	466
3962	465
3963	466
3964	466
3965	465
3966	465
3967	464
3968	464
3969	464
3970	463
3971	463
3972	463
3973	463
3974	463
3975	464
3976	463
3977	463
3978	464
3979	465
3980	465
3981	465
3982	465
3983	465
3984	464
3985	464
3986	465
3987	466
3988	467
3989	467
3990	467
3991	468
3992	469
3993	469
3994	470
3995	470
3996	471
3997	471
3998	472
3999	472
4000	472
4001	472
4002	472
4003	472
4004	473
4005	473
4006	473
4007	473
4008	474
4009	475
4010	474
4011	474
4012	475
4013	475
4014	476
4015	476
4016	476
4017	476
4018	476
4019	478
4020	478
4021	478
4022	478
4023	478
4024	479
4025	480
4026	480
4027	481
4028	481
4029	483
4030	483
4031	483
4032	484
4033	485
4034	486
4035	487
4036	487
4037	487
4038	487
4039	487
4040	487
4041	487
4042	487
4043	488
4044	489
4045	489
4046	489
4047	490
4048	491
4049	491
4050	491
4051	492
4052	493
4053	494
4054	496
4055	496
4056	497
4057	497
4058	497
4059	497
4060	497
4061	498
4062	498
4063	497
4064	499
4065	499
4066	500
4067	501
4068	501
4069	502
4070	502
4071	502
4072	502
4073	502
4074	503
4075	503
4076	503
4077	505
4078	505
4079	506
4080	506
4081	507
4082	508
4083	508
4084	508
4085	508
4086	508
4087	509
4088	509
4089	510
4090	510
4091	510
4092	510
4093	511
4094	511
4095	511
4096	511
4097	511
4098	511
4099	512
4100	512
4101	512
4102	512
4103	512
4104	513
4105	513
4106	513
4107	513
4108	513
4109	513
4110	512
4111	513
4112	514
4113	514
4114	514
4115	514
4116	513
4117	513
4118	512
4119	513
4120	512
4121	512
4122	511
4123	511
4124	511
4125	511
4126	512
4127	513
4128	512
4129	512
4130	512
4131	512
4132	512
4133	513
4134	513
4135	512
4136	513
4137	513
4138	512
4139	512
4140	512
4141	511
4142	512
4143	512
4144	512
4145	512
4146	512
4147	512
4148	512
4149	512
4150	512
4151	512
4152	511
4153	512
4154	512
4155	512
4156	512
4157	511
4158	512
4159	512
4160	512
4161	512
4162	512
4163	512
4164	513
4165	513
4166	513
4167	512
4168	512
4169	512
4170	512
4171	512
4172	512
4173	511
4174	512
4175	512
4176	512
4177	512
4178	512
4179	512
4180	512
4181	512
4182	512
4183	512
4184	511
4185	512
4186	512
4187	512
4188	512
4189	511
4190	512
4191	512
4192	512
4193	512
4194	512
4195	512
4196	512
4197	512
4198	512
4199	512
4200	512
4201	511
4202	510
4203	511
4204	511
4205	510
4206	510
4207	510
4208	510
4209	510
4210	510
4211	511
4212	510
4213	511
4214	511
4215	510
4216	510
4217	509
4218	510
4219	510
4220	510
4221	510
4222	510
4223	509
4224	510
4225	510
4226	509
4227	508
4228	509
4229	509
4230	509
4231	508
4232	509
4233	509
4234	510
4235	510
4236	511
4237	512
4238	512
4239	512
4240	512
4241	513
4242	513
4243	513
4244	513
4245	513
4246	513
4247	512
4248	512
4249	511
4250	511
4251	511
4252	511
4253	512
4254	513
4255	513
4256	513
4257	513
4258	514
4259	514
4260	514
4261	514
4262	514
4263	514
4264	515
4265	516
4266	516
4267	516
4268	517
4269	517
4270	517
4271	517
4272	518
4273	517
4274	518
4275	518
4276	519
4277	519
4278	520
4279	521
4280	521
4281	522
4282	522
4283	522
4284	522
4285	523
4286	522
4287	521
4288	520
4289	519
4290	518
4291	516
4292	516
4293	516
4294	515
4295	515
4296	514
4297	514
4298	514
4299	513
4300	513
4301	513
4302	513
4303	513
4304	512
4305	512
4306	511
4307	510
4308	510
4309	509
4310	508
4311	508
4312	507
4313	507
4314	507
4315	506
4316	505
4317	504
4318	504
4319	503
4320	501
4321	500
4322	500
4323	499
4324	499
4325	498
4326	498
4327	498
4328	498
4329	498
4330	498
4331	497
4332	496
4333	497
4334	497
4335	498
4336	499
4337	500
4338	500
4339	500
4340	500
4341	500
4342	501
4343	500
4344	501
4345	501
4346	501
4347	501
4348	501
4349	500
4350	500
4351	500
4352	500
4353	500
4354	501
4355	501
4356	501
4357	501
4358	500
4359	500
4360	500
4361	500
4362	500
4363	499
4364	500
4365	500
4366	499
4367	499
4368	499
4369	500
4370	500
4371	500
4372	499
4373	500
4374	500
4375	499
4376	500
4377	500
4378	500
4379	500
4380	500
4381	500
4382	501
4383	500
4384	501
4385	501
4386	502
4387	502
4388	502
4389	502
4390	502
4391	501
4392	501
4393	501
4394	502
4395	501
4396	501
4397	500
4398	499
4399	497
4400	497
4401	496
4402	495
4403	496
4404	496
4405	496
4406	497
4407	500
4408	504
4409	507
4410	510
4411	514
4412	519
4413	523
4414	528
4415	535
4416	542
4417	550
4418	560
4419	570
4420	580
4421	590
4422	599
4423	607
4424	615
4425	623
4426	630
4427	635
4428	639
4429	641
4430	642
4431	641
4432	641
4433	637
4434	630
4435	621
4436	609
4437	596
4438	583
4439	572
4440	560
4441	548
4442	536
4443	524
4444	511
4445	499
4446	487
4447	476
4448	465
4449	454
4450	444
4451	438
4452	432
4453	428
4454	426
4455	426
4456	427
4457	428
4458	432
4459	434
4460	436
4461	440
4462	443
4463	446
4464	449
4465	454
4466	458
4467	462
4468	465
4469	468
4470	471
4471	473
4472	476
4473	478
4474	480
4475	481
4476	482
4477	483
4478	485
4479	486
4480	486
4481	486
4482	487
4483	488
4484	488
4485	488
4486	489
4487	489
4488	490
4489	491
4490	491
4491	492
4492	493
4493	494
4494	495
4495	496
4496	496
4497	497
4498	498
4499	499
4500	498
4501	498
4502	499
4503	499
4504	499
4505	500
4506	501
4507	501
4508	500
4509	500
4510	500
4511	501
4512	501
4513	501
4514	502
4515	502
4516	502
4517	502
4518	503
4519	504
4520	504
4521	504
4522	504
4523	503
4524	504
4525	504
4526	504
4527	504
4528	504
4529	505
4530	505
4531	505
4532	504
4533	505
4534	504
4535	504
4536	504
4537	504
4538	504
4539	505
4540	504
4541	504
4542	504
4543	504
4544	504
4545	505
4546	505
4547	505
4548	506
4549	506
4550	505
4551	506
4552	505
4553	506
4554	507
4555	508
4556	508
4557	509
4558	509
4559	510
4560	510
4561	511
4562	511
4563	511
4564	512
4565	512
4566	512
4567	513
4568	513
4569	514
4570	514
4571	515
4572	515
4573	515
4574	515
4575	515
4576	515
4577	515
4578	515
4579	516
4580	516
4581	516
4582	516
4583	515
4584	516
4585	516
4586	515
4587	515
4588	515
4589	515
4590	515
4591	516
4592	516
4593	516
4594	517
4595	517
4596	518
4597	517
4598	517
4599	518
4600	518
4601	518
4602	518
4603	519
4604	519
4605	520
4606	520
4607	521
4608	522
4609	523
4610	523
4611	522
4612	522
4613	522
4614	522
4615	522
4616	522
4617	522
4618	523
4619	523
4620	524
4621	524
4622	524
4623	526
4624	526
4625	527
4626	527
4627	527
4628	528
4629	528
4630	527
4631	527
4632	527
4633	527
4634	527
4635	528
4636	528
4637	528
4638	529
4639	529
4640	529
4641	529
4642	529
4643	529
4644	530
4645	530
4646	531
4647	530
4648	530
4649	529
4650	529
4651	529
4652	528
4653	528
4654	529
4655	528
4656	527
4657	526
4658	526
4659	526
4660	525
4661	525
4662	524
4663	523
4664	522
4665	521
4666	520
4667	519
4668	518
4669	517
4670	516
4671	515
4672	513
4673	512
4674	511
4675	509
4676	507
4677	506
4678	505
4679	504
4680	502
4681	500
4682	499
4683	497
4684	496
4685	495
4686	492
4687	491
4688	489
4689	488
4690	487
4691	485
4692	483
4693	483
4694	482
4695	481
4696	481
4697	480
4698	479
4699	479
4700	478
4701	478
4702	478
4703	478
4704	478
4705	478
4706	477
4707	477
4708	476
4709	476
4710	476
4711	476
4712	475
4713	475
4714	475
4715	475
4716	476
4717	476
4718	476
4719	476
4720	476
4721	475
4722	475
4723	475
4724	476
4725	476
4726	476
4727	476
4728	475
4729	475
4730	475
4731	475
4732	474
4733	475
4734	475
4735	476
4736	476
4737	477
4738	477
4739	477
4740	478
4741	478
4742	479
4743	479
4744	479
4745	480
4746	480
4747	480
4748	481
4749	481
4750	481
4751	481
4752	481
4753	481
4754	481
4755	482
4756	482
4757	482
4758	482
4759	483
4760	483
4761	483
4762	483
4763	483
4764	483
4765	484
4766	484
4767	484
4768	484
4769	484
4770	485
4771	485
4772	486
4773	486
4774	486
4775	487
4776	487
4777	487
4778	488
4779	488
4780	489
4781	489
4782	489
4783	489
4784	489
4785	490
4786	490
4787	490
4788	490
4789	490
4790	490
4791	491
4792	491
4793	492
4794	492
4795	493
4796	493
4797	493
4798	494
4799	494
4800	494
4801	494
4802	495
4803	496
4804	496
4805	497
4806	498
4807	498
4808	498
4809	499
4810	500
4811	500
4812	501
4813	501
4814	501
4815	501
4816	502
4817	502
4818	502
4819	503
4820	502
4821	502
4822	502
4823	503
4824	503
4825	503
4826	504
4827	504
4828	505
4829	505
4830	505
4831	505
4832	505
4833	505
4834	505
4835	506
4836	505
4837	506
4838	506
4839	506
4840	506
4841	505
4842	505
4843	505
4844	506
4845	507
4846	507
4847	508
4848	508
4849	510
4850	510
4851	510
4852	510
4853	511
4854	511
4855	511
4856	510
4857	510
4858	510
4859	510
4860	509
4861	509
4862	510
4863	510
4864	510
4865	509
4866	509
4867	508
4868	509
4869	509
4870	508
4871	509
4872	509
4873	510
4874	511
4875	510
4876	510
4877	510
4878	511
4879	511
4880	511
4881	511
4882	511
4883	511
4884	511
4885	511
4886	511
4887	511
4888	510
4889	510
4890	509
4891	508
4892	508
4893	508
4894	508
4895	508
4896	508
4897	508
4898	508
4899	508
4900	508
4901	508
4902	508
4903	508
4904	508
4905	508
4906	508
4907	508
4908	508
4909	508
4910	507
4911	507
4912	508
4913	508
4914	508
4915	508
4916	507
4917	507
4918	507
4919	507
4920	507
4921	506
4922	505
4923	505
4924	505
4925	505
4926	506
4927	507
4928	507
4929	507
4930	507
4931	507
4932	507
4933	507
4934	508
4935	508
4936	508
4937	508
4938	508
4939	508
4940	508
4941	508
4942	509
4943	509
4944	509
4945	509
4946	509
4947	508
4948	509
4949	508
4950	508
4951	508
4952	508
4953	508
4954	508
4955	508
4956	508
4957	509
4958	509
4959	509
4960	510
4961	510
4962	510
4963	510
4964	510
4965	510
4966	510
4967	510
4968	511
4969	511
4970	511
4971	511
4972	511
4973	512
4974	512
4975	512
4976	512
4977	512
4978	512
4979	512
4980	512
4981	512
4982	512
4983	511
4984	512
4985	512
4986	513
4987	513
4988	513
4989	513
4990	512
4991	513
4992	513
4993	513
4994	513
4995	513
4996	513
4997	513
4998	514
4999	514
5000	514
5001	513
5002	514
5003	514
5004	514
5005	515
5006	515
5007	516
5008	516
5009	516
5010	516
5011	517
5012	518
5013	518
5014	519
5015	519
5016	520
5017	521
5018	521
5019	521
5020	520
5021	520
5022	521
5023	521
5024	522
5025	522
5026	522
5027	521
5028	521
5029	520
5030	520
5031	520
5032	520
5033	521
5034	521
5035	523
5036	523
5037	523
5038	524
5039	524
5040	524
5041	525
5042	525
5043	526
5044	527
5045	529
5046	530
5047	531
5048	531
5049	532
5050	531
5051	531
5052	529
5053	529
5054	528
5055	528
5056	528
5057	526
5058	525
5059	525
5060	524
5061	524
5062	523
5063	522
5064	522
5065	522
5066	522
5067	522
5068	521
5069	521
5070	520
5071	519
5072	518
5073	517
5074	516
5075	516
5076	516
5077	515
5078	514
5079	513
5080	512
5081	511
5082	510
5083	508
5084	507
5085	507
5086	506
5087	504
5088	504
5089	504
5090	503
5091	503
5092	502
5093	502
5094	503
5095	502
5096	502
5097	501
5098	501
5099	500
5100	499
5101	500
5102	499
5103	499
5104	500
5105	499
5106	499
5107	499
5108	499
5109	499
5110	499
5111	500
5112	500
5113	500
5114	500
5115	500
5116	500
5117	500
5118	501
5119	502
5120	502
5121	502
5122	501
5123	501
5124	502
5125	502
5126	502
5127	503
5128	503
5129	503
5130	502
5131	501
5132	501
5133	501
5134	502
5135	503
5136	504
5137	504
5138	505
5139	505
5140	505
5141	505
5142	506
5143	506
5144	507
5145	507
5146	507
5147	507
5148	507
5149	507
5150	507
5151	507
5152	506
5153	507
5154	507
5155	507
5156	507
5157	506
5158	507
5159	507
5160	507
5161	507
5162	508
5163	508
5164	508
5165	508
5166	507
5167	507
5168	508
5169	507
5170	507
5171	505
5172	505
5173	505
5174	507
5175	509
5176	512
5177	515
5178	519
5179	523
5180	526
5181	530
5182	535
5183	541
5184	548
5185	556
5186	565
5187	576
5188	586
5189	598
5190	608
5191	617
5192	626
5193	635
5194	643
5195	650
5196	658
5197	663
5198	666
5199	667
5200	667
5201	665
5202	660
5203	653
5204	643
5205	631
5206	617
5207	604
5208	592
5209	580
5210	568
5211	554
5212	540
5213	527
5214	514
5215	502
5216	489
5217	477
5218	465
5219	455
5220	447
5221	441
5222	438
5223	436
5224	436
5225	437
5226	438
5227	440
5228	443
5229	446
5230	449
5231	453
5232	455
5233	459
5234	463
5235	467
5236	472
5237	476
5238	479
5239	482
5240	484
5241	486
5242	488
5243	489
5244	491
5245	491
5246	492
5247	492
5248	492
5249	493
5250	493
5251	494
5252	494
5253	495
5254	496
5255	497
5256	498
5257	499
5258	499
5259	499
5260	499
5261	499
5262	500
5263	500
5264	501
5265	501
5266	502
5267	502
5268	503
5269	504
5270	504
5271	504
5272	505
5273	505
5274	506
5275	507
5276	507
5277	508
5278	508
5279	508
5280	508
5281	508
5282	509
5283	509
5284	510
5285	510
5286	510
5287	510
5288	510
5289	510
5290	511
5291	510
5292	510
5293	510
5294	511
5295	511
5296	512
5297	511
5298	511
5299	511
5300	511
5301	510
5302	510
5303	510
5304	511
5305	511
5306	512
5307	511
5308	512
5309	512
5310	512
5311	513
5312	512
5313	513
5314	514
5315	515
5316	515
5317	514
5318	515
5319	515
5320	515
5321	515
5322	515
5323	515
5324	516
5325	516
5326	517
5327	516
5328	516
5329	516
5330	516
5331	516
5332	516
5333	516
5334	517
5335	517
5336	517
5337	517
5338	517
5339	517
5340	516
5341	517
5342	518
5343	518
5344	518
5345	519
5346	520
5347	519
5348	519
5349	518
5350	518
5351	518
5352	519
5353	519
5354	519
5355	520
5356	521
5357	521
5358	521
5359	521
5360	521
5361	521
5362	521
5363	522
5364	522
5365	523
5366	523
5367	524
5368	524
5369	524
5370	524
5371	524
5372	524
5373	525
5374	526
5375	526
5376	526
5377	526
5378	527
5379	527
5380	527
5381	527
5382	528
5383	528
5384	529
5385	529
5386	530
5387	531
5388	531
5389	532
5390	532
5391	532
5392	532
5393	532
5394	532
5395	533
5396	533
5397	532
5398	533
5399	534
5400	534
5401	533
5402	533
5403	533
5404	534
5405	535
5406	535
5407	535
5408	536
5409	536
5410	536
5411	536
5412	536
5413	536
5414	536
5415	536
5416	536
5417	536
5418	536
5419	535
5420	535
5421	535
5422	534
5423	534
5424	534
5425	534
5426	533
5427	534
5428	534
5429	534
5430	533
5431	532
5432	531
5433	530
5434	529
5435	528
5436	527
5437	526
5438	524
5439	523
5440	521
5441	519
5442	518
5443	516
5444	515
5445	513
5446	511
5447	510
5448	508
5449	507
5450	504
5451	502
5452	500
5453	499
5454	497
5455	496
5456	495
5457	494
5458	492
5459	491
5460	490
5461	489
5462	488
5463	487
5464	486
5465	485
5466	484
5467	483
5468	482
5469	480
5470	479
5471	477
5472	476
5473	476
5474	476
5475	476
5476	476
5477	476
5478	476
5479	475
5480	475
5481	474
5482	474
5483	475
5484	475
5485	474
5486	474
5487	474
5488	473
5489	474
5490	473
5491	473
5492	474
5493	473
5494	474
5495	473
5496	474
5497	473
5498	474
5499	475
5500	475
5501	475
5502	475
5503	476
5504	476
5505	477
5506	478
5507	478
5508	479
5509	479
5510	479
5511	480
5512	480
5513	480
5514	481
5515	482
5516	483
5517	483
5518	483
5519	485
5520	485
5521	485
5522	485
5523	486
5524	487
5525	487
5526	487
5527	487
5528	487
5529	488
5530	487
5531	487
5532	487
5533	487
5534	487
5535	487
5536	488
5537	488
5538	488
5539	489
5540	489
5541	489
5542	491
5543	492
5544	492
5545	493
5546	493
5547	494
5548	494
5549	494
5550	494
5551	494
5552	494
5553	495
5554	496
5555	496
5556	496
5557	496
5558	496
5559	497
5560	497
5561	497
5562	498
5563	498
5564	498
5565	499
5566	499
5567	499
5568	500
5569	500
5570	500
5571	501
5572	501
5573	501
5574	502
5575	502
5576	503
5577	503
5578	503
5579	504
5580	504
5581	504
5582	504
5583	504
5584	504
5585	504
5586	504
5587	504
5588	504
5589	504
5590	504
5591	504
5592	504
5593	504
5594	504
5595	504
5596	504
5597	504
5598	504
5599	504
5600	504
5601	504
5602	504
5603	504
5604	504
5605	504
5606	505
5607	506
5608	506
5609	506
5610	506
5611	506
5612	506
5613	507
5614	506
5615	507
5616	507
5617	507
5618	507
5619	508
5620	508
5621	508
5622	507
5623	507
5624	508
5625	508
5626	507
5627	507
5628	507
5629	507
5630	506
5631	506
5632	506
5633	507
5634	507
5635	506
5636	507
5637	507
5638	507
5639	507
5640	508
5641	508
5642	508
5643	508
5644	508
5645	508
5646	508
5647	509
5648	510
5649	510
5650	509
5651	509
5652	508
5653	509
5654	509
5655	509
5656	509
5657	508
5658	508
5659	508
5660	508
5661	507
5662	507
5663	508
5664	508
5665	509
5666	509
5667	508
5668	508
5669	508
5670	508
5671	508
5672	508
5673	508
5674	508
5675	508
5676	509
5677	508
5678	508
5679	509
5680	508
5681	509
5682	509
5683	509
5684	509
5685	510
5686	510
5687	511
5688	511
5689	511
5690	511
5691	510
5692	511
5693	512
5694	511
5695	512
5696	512
5697	512
5698	512
5699	512
5700	512
5701	512
5702	512
5703	512
5704	513
5705	514
5706	514
5707	514
5708	514
5709	514
5710	514
5711	514
5712	514
5713	515
5714	515
5715	515
5716	515
5717	514
5718	515
5719	515
5720	515
5721	515
5722	515
5723	515
5724	516
5725	516
5726	516
5727	517
5728	518
5729	518
5730	518
5731	518
5732	518
5733	518
5734	519
5735	519
5736	518
5737	519
5738	519
5739	519
5740	519
5741	519
5742	518
5743	519
5744	519
5745	519
5746	519
5747	519
5748	520
5749	519
5750	519
5751	519
5752	520
5753	519
5754	519
5755	520
5756	520
5757	520
5758	519
5759	519
5760	519
5761	518
5762	518
5763	518
5764	519
5765	519
5766	519
5767	520
5768	520
5769	520
5770	519
5771	519
5772	519
5773	520
5774	521
5775	521
5776	521
5777	522
5778	521
5779	521
5780	521
5781	520
5782	519
5783	519
5784	519
5785	519
5786	519
5787	519
5788	519
5789	519
5790	520
5791	519
5792	519
5793	519
5794	519
5795	520
5796	520
5797	521
5798	521
5799	521
5800	520
5801	521
5802	521
5803	521
5804	522
5805	523
5806	524
5807	524
5808	524
5809	524
5810	524
5811	524
5812	526
5813	526
5814	526
5815	525
5816	525
5817	525
5818	525
5819	525
5820	524
5821	524
5822	524
5823	524
5824	526
5825	526
5826	527
5827	527
5828	527
5829	527
5830	527
5831	527
5832	527
5833	529
5834	529
5835	531
5836	532
5837	532
5838	532
5839	532
5840	531
5841	531
5842	530
5843	529
5844	529
5845	529
5846	528
5847	527
5848	525
5849	525
5850	525
5851	524
5852	524
5853	524
5854	524
5855	524
5856	524
5857	524
5858	524
5859	523
5860	522
5861	521
5862	520
5863	519
5864	519
5865	519
5866	518
5867	517
5868	516
5869	516
5870	515
5871	513
5872	512
5873	511
5874	510
5875	508
5876	508
5877	506
5878	504
5879	503
5880	502
5881	502
5882	501
5883	502
5884	502
5885	502
5886	502
5887	502
5888	503
5889	503
5890	502
5891	502
5892	501
5893	500
5894	501
5895	502
5896	503
5897	503
5898	505
5899	505
5900	505
5901	505
5902	505
5903	506
5904	506
5905	505
5906	506
5907	506
5908	506
5909	505
5910	505
5911	505
5912	505
5913	505
5914	505
5915	506
5916	506
5917	506
5918	505
5919	505
5920	505
5921	505
5922	504
5923	504
5924	504
5925	504
5926	504
5927	504
5928	504
5929	504
5930	504
5931	503
5932	504
5933	504
5934	504
5935	504
5936	504
5937	504
5938	504
5939	505
5940	505
5941	505
5942	504
5943	504
5944	504
5945	504
5946	505
5947	505
5948	506
5949	506
5950	506
5951	506
5952	505
5953	505
5954	505
5955	504
5956	504
5957	504
5958	503
5959	502
5960	502
5961	502
5962	500
5963	501
5964	502
5965	503
5966	506
5967	510
5968	514
5969	517
5970	520
5971	525
5972	529
5973	535
5974	542
5975	549
5976	559
5977	569
5978	580
5979	592
5980	603
5981	612
5982	622
5983	631
5984	639
5985	647
5986	654
5987	659
5988	663
5989	665
5990	665
5991	664
5992	660
5993	654
5994	645
5995	632
5996	618
5997	603
5998	591
5999	578
6000	565
6001	552
6002	539
6003	526
6004	512
6005	500
6006	488
6007	475
6008	463
6009	452
6010	443
6011	435
6012	431
6013	428
6014	427
6015	428
6016	430
6017	431
6018	433
6019	436
6020	439
6021	442
6022	446
6023	451
6024	455
6025	460
6026	464
6027	468
6028	472
6029	475
6030	478
6031	480
6032	483
6033	485
6034	488
6035	490
6036	492
6037	493
6038	494
6039	495
6040	496
6041	496
6042	497
6043	498
6044	498
6045	499
6046	500
6047	500
6048	501
6049	502
6050	503
6051	503
6052	504
6053	504
6054	504
6055	504
6056	505
6057	505
6058	505
6059	505
6060	505
6061	505
6062	504
6063	505
6064	505
6065	505
6066	506
6067	506
6068	506
6069	506
6070	507
6071	507
6072	508
6073	508
6074	508
6075	508
6076	509
6077	509
6078	509
6079	509
6080	508
6081	509
6082	509
6083	509
6084	509
6085	509
6086	510
6087	511
6088	511
6089	511
6090	511
6091	510
6092	511
6093	511
6094	512
6095	512
6096	511
6097	511
6098	512
6099	511
6100	511
6101	510
6102	510
6103	511
6104	511
6105	512
6106	512
6107	512
6108	512
6109	513
6110	513
6111	513
6112	513
6113	513
6114	513
6115	514
6116	513
6117	513
6118	513
6119	513
6120	512
6121	513
6122	513
6123	514
6124	514
6125	515
6126	516
6127	516
6128	516
6129	517
6130	517
6131	517
6132	518
6133	518
6134	519
6135	519
6136	520
6137	520
6138	520
6139	521
6140	521
6141	520
6142	520
6143	521
6144	521
6145	523
6146	523
6147	524
6148	524
6149	525
6150	526
6151	525
6152	525
6153	526
6154	526
6155	526
6156	527
6157	526
6158	527
6159	527
6160	527
6161	528
6162	528
6163	528
6164	528
6165	528
6166	528
6167	528
6168	529
6169	530
6170	531
6171	531
6172	530
6173	531
6174	531
6175	531
6176	532
6177	532
6178	532
6179	533
6180	532
6181	532
6182	532
6183	532
6184	532
6185	532
6186	533
6187	533
6188	534
6189	535
6190	535
6191	535
6192	535
6193	536
6194	536
6195	536
6196	537
6197	537
6198	538
6199	538
6200	538
6201	538
6202	538
6203	539
6204	539
6205	540
6206	540
6207	540
6208	540
6209	539
6210	539
6211	538
6212	538
6213	538
6214	537
6215	537
6216	537
6217	537
6218	537
6219	536
6220	536
6221	534
6222	533
6223	532
6224	531
6225	530
6226	528
6227	527
6228	526
6229	525
6230	523
6231	522
6232	519
6233	519
6234	517
6235	515
6236	513
6237	512
6238	510
6239	508
6240	506
6241	503
6242	501
6243	499
6244	497
6245	496
6246	495
6247	494
6248	492
6249	491
6250	489
6251	487
6252	485
6253	484
6254	483
6255	481
6256	481
6257	479
6258	479
6259	477
6260	476
6261	474
6262	473
6263	472
6264	471
6265	471
6266	470
6267	469
6268	468
6269	468
6270	468
6271	468
6272	468
6273	468
6274	468
6275	468
6276	467
6277	467
6278	467
6279	466
6280	465
6281	465
6282	464
6283	464
6284	465
6285	466
6286	467
6287	467
6288	467
6289	467
6290	466
6291	467
6292	466
6293	466
6294	466
6295	466
6296	466
6297	466
6298	467
6299	467
6300	467
6301	467
6302	468
6303	468
6304	468
6305	469
6306	470
6307	470
6308	471
6309	471
6310	471
6311	471
6312	473
6313	474
6314	475
6315	475
6316	476
6317	476
6318	476
6319	477
6320	477
6321	478
6322	478
6323	479
6324	479
6325	479
6326	480
6327	480
6328	481
6329	481
6330	481
6331	481
6332	482
6333	483
6334	483
6335	483
6336	483
6337	483
6338	484
6339	485
6340	485
6341	484
6342	485
6343	486
6344	486
6345	487
6346	487
6347	487
6348	488
6349	488
6350	488
6351	488
6352	489
6353	489
6354	491
6355	491
6356	492
6357	492
6358	493
6359	494
6360	494
6361	494
6362	494
6363	495
6364	495
6365	494
6366	495
6367	496
6368	496
6369	496
6370	496
6371	496
6372	496
6373	496
6374	497
6375	498
6376	498
6377	499
6378	500
6379	500
6380	500
6381	500
6382	500
6383	500
6384	500
6385	500
6386	501
6387	501
6388	501
6389	501
6390	502
6391	502
6392	502
6393	503
6394	504
6395	504
6396	504
6397	504
6398	505
6399	505
6400	505
6401	506
6402	506
6403	505
6404	506
6405	507
6406	507
6407	507
6408	507
6409	508
6410	507
6411	507
6412	508
6413	508
6414	508
6415	508
6416	508
6417	509
6418	508
6419	508
6420	508
6421	509
6422	509
6423	509
6424	510
6425	510
6426	510
6427	510
6428	510
6429	510
6430	510
6431	509
6432	509
6433	509
6434	510
6435	511
6436	511
6437	510
6438	511
6439	511
6440	510
6441	510
6442	510
6443	511
6444	512
6445	512
6446	512
6447	512
6448	512
6449	512
6450	512
6451	512
6452	512
6453	512
6454	512
6455	512
6456	512
6457	512
6458	512
6459	512
6460	512
6461	512
6462	512
6463	513
6464	513
6465	514
6466	515
6467	515
6468	515
6469	515
6470	514
6471	513
6472	513
6473	513
6474	513
6475	513
6476	513
6477	513
6478	512
6479	512
6480	512
6481	512
6482	512
6483	512
6484	512
6485	512
6486	512
6487	512
6488	512
6489	512
6490	511
6491	511
6492	511
6493	512
6494	512
6495	512
6496	512
6497	513
6498	513
6499	513
6500	512
6501	512
6502	512
6503	511
6504	511
6505	510
6506	509
6507	508
6508	508
6509	508
6510	508
6511	508
6512	508
6513	508
6514	508
6515	508
6516	509
6517	508
6518	508
6519	508
6520	507
6521	507
6522	507
6523	507
6524	507
6525	507
6526	508
6527	509
6528	508
6529	508
6530	507
6531	507
6532	507
6533	507
6534	508
6535	508
6536	509
6537	509
6538	509
6539	509
6540	509
6541	509
6542	509
6543	509
6544	509
6545	510
6546	510
6547	510
6548	510
6549	510
6550	509
6551	508
6552	508
6553	509
6554	509
6555	509
6556	509
6557	508
6558	508
6559	509
6560	508
6561	508
6562	508
6563	508
6564	509
6565	509
6566	509
6567	509
6568	509
6569	509
6570	508
6571	508
6572	508
6573	507
6574	508
6575	508
6576	509
6577	509
6578	510
6579	510
6580	510
6581	510
6582	510
6583	511
6584	512
6585	512
6586	512
6587	512
6588	513
6589	513
6590	513
6591	514
6592	513
6593	514
6594	514
6595	515
6596	516
6597	516
6598	517
6599	518
6600	518
6601	518
6602	519
6603	519
6604	519
6605	519
6606	519
6607	518
6608	518
6609	518
6610	518
6611	519
6612	519
6613	519
6614	521
6615	521
6616	521
6617	521
6618	521
6619	521
6620	522
6621	522
6622	524
6623	525
6624	526
6625	526
6626	527
6627	527
6628	527
6629	527
6630	526
6631	526
6632	526
6633	524
6634	524
6635	523
6636	521
6637	520
6638	519
6639	519
6640	518
6641	517
6642	516
6643	517
6644	517
6645	517
6646	518
6647	517
6648	517
6649	516
6650	515
6651	514
6652	513
6653	512
6654	511
6655	511
6656	511
6657	510
6658	510
6659	509
6660	508
6661	507
6662	506
6663	505
6664	504
6665	503
6666	502
6667	502
6668	501
6669	500
6670	499
6671	498
6672	498
6673	498
6674	498
6675	499
6676	499
6677	499
6678	499
6679	500
6680	500
6681	500
6682	500
6683	501
6684	501
6685	502
6686	502
6687	502
6688	502
6689	502
6690	502
6691	502
6692	502
6693	502
6694	503
6695	502
6696	502
6697	501
6698	501
6699	502
6700	502
6701	502
6702	502
6703	502
6704	502
6705	503
6706	503
6707	502
6708	503
6709	503
6710	503
6711	503
6712	503
6713	503
6714	503
6715	503
6716	502
6717	502
6718	502
6719	503
6720	503
6721	502
6722	502
6723	502
6724	503
6725	503
6726	504
6727	503
6728	503
6729	504
6730	504
6731	505
6732	504
6733	505
6734	505
6735	506
6736	506
6737	505
6738	506
6739	507
6740	506
6741	506
6742	505
6743	505
6744	505
6745	505
6746	504
6747	504
6748	503
6749	502
6750	502
6751	501
6752	502
6753	504
6754	507
6755	511
6756	514
6757	518
6758	522
6759	526
6760	529
6761	534
6762	541
6763	549
6764	559
6765	569
6766	580
6767	592
6768	603
6769	614
6770	623
6771	632
6772	640
6773	648
6774	655
6775	662
6776	667
6777	669
6778	670
6779	669
6780	665
6781	659
6782	649
6783	637
6784	623
6785	608
6786	594
6787	580
6788	567
6789	553
6790	539
6791	526
6792	512
6793	500
6794	488
6795	475
6796	463
6797	451
6798	443
6799	436
6800	431
6801	428
6802	427
6803	428
6804	431
6805	433
6806	435
6807	438
6808	440
6809	444
6810	447
6811	450
6812	454
6813	458
6814	463
6815	467
6816	472
6817	475
6818	478
6819	481
6820	483
6821	484
6822	486
6823	487
6824	489
6825	492
6826	493
6827	494
6828	494
6829	494
6830	494
6831	494
6832	494
6833	495
6834	496
6835	496
6836	497
6837	497
6838	498
6839	498
6840	498
6841	499
6842	499
6843	499
6844	499
6845	499
6846	499
6847	499
6848	499
6849	499
6850	499
6851	499
6852	499
6853	500
6854	501
6855	501
6856	501
6857	502
6858	503
6859	503
6860	504
6861	504
6862	504
6863	505
6864	505
6865	505
6866	505
6867	506
6868	506
6869	507
6870	507
6871	507
6872	507
6873	507
6874	507
6875	506
6876	506
6877	507
6878	507
6879	508
6880	508
6881	509
6882	509
6883	510
6884	510
6885	511
6886	511
6887	511
6888	510
6889	510
6890	510
6891	510
6892	510
6893	511
6894	511
6895	511
6896	512
6897	512
6898	513
6899	513
6900	514
6901	515
6902	515
6903	515
6904	515
6905	516
6906	516
6907	517
6908	518
6909	518
6910	517
6911	518
6912	518
6913	518
6914	518
6915	519
6916	519
6917	519
6918	519
6919	519
6920	519
6921	519
6922	519
6923	519
6924	520
6925	521
6926	521
6927	522
6928	523
6929	523
6930	524
6931	524
6932	526
6933	527
6934	527
6935	527
6936	528
6937	529
6938	529
6939	530
6940	531
6941	531
6942	531
6943	531
6944	531
6945	532
6946	532
6947	534
6948	534
6949	535
6950	534
6951	535
6952	535
6953	536
6954	537
6955	537
6956	538
6957	538
6958	539
6959	539
6960	539
6961	539
6962	539
6963	540
6964	540
6965	541
6966	542
6967	541
6968	542
6969	543
6970	543
6971	543
6972	543
6973	543
6974	543
6975	543
6976	544
6977	544
6978	545
6979	546
6980	545
6981	545
6982	545
6983	546
6984	547
6985	547
6986	547
6987	547
6988	547
6989	547
6990	547
6991	547
6992	547
6993	546
6994	546
6995	546
6996	546
6997	545
6998	545
6999	545
7000	545